# 1: pvtu_step
# 2: step
# 3: time (yr)
# 4: trench (rad)
# 5: slab depth (m)
# 6: 100km dip (rad)
# 7: subducting plate velocity (m/yr)
# 8: overiding plate velocity (m/yr)
# 9: mechanical decoupling depth (m)
0           0           0.0000e+00    6.6035e-01    2.3989e+05    6.2743e-01    8.8188e-02    2.8689e-02    -1.0000e+00   
1           27          1.0074e+05    6.6131e-01    2.6247e+05    8.1692e-01    1.5785e-01    5.3607e-02    -1.0000e+00   
2           50          2.0248e+05    6.6179e-01    2.8505e+05    9.2714e-01    1.8427e-01    5.0276e-02    -1.0000e+00   
3           66          2.9745e+05    6.6226e-01    3.1327e+05    1.0126e+00    1.9831e-01    4.2935e-02    1.4252e+05    
4           81          3.9812e+05    6.6274e-01    3.3444e+05    1.1598e+00    2.2760e-01    3.8717e-02    1.3970e+05    
5           99          5.0230e+05    6.6274e-01    3.7113e+05    1.2662e+00    2.8985e-01    3.4182e-02    1.5381e+05    
6           121         5.9941e+05    6.6226e-01    4.2193e+05    1.3244e+00    3.7836e-01    2.6902e-02    1.4817e+05    
7           154         6.9931e+05    6.6179e-01    4.9390e+05    1.4789e+00    5.4096e-01    2.6449e-02    2.0744e+05    
8           192         7.9944e+05    6.6035e-01    5.7433e+05    1.4789e+00    4.1225e-01    1.6743e-02    2.1873e+05    
9           212         8.9683e+05    6.5988e-01    6.0255e+05    1.5080e+00    8.6875e-02    1.2582e-03    1.5381e+05    
10          218         9.9940e+05    6.5988e-01    6.1102e+05    1.5122e+00    4.7010e-02    7.0734e-05    1.3970e+05    
11          223         1.0962e+06    6.5988e-01    6.1384e+05    1.5415e+00    3.9575e-02    -2.9084e-04   1.4817e+05    
12          228         1.1995e+06    6.5988e-01    6.1949e+05    1.5415e+00    3.6917e-02    -4.9121e-04   2.1308e+05    
13          233         1.3107e+06    6.5988e-01    6.2372e+05    1.5750e+00    3.5456e-02    -6.2216e-04   1.5381e+05    
14          237         1.4053e+06    6.5988e-01    6.2937e+05    1.5750e+00    3.4422e-02    -7.6732e-04   2.1590e+05    
15          241         1.5038e+06    6.5988e-01    6.2795e+05    1.6043e+00    3.3468e-02    -8.9552e-04   2.2437e+05    
16          245         1.6045e+06    6.5988e-01    6.3078e+05    1.6043e+00    3.2618e-02    -1.0122e-03   2.2437e+05    
17          249         1.7041e+06    6.5988e-01    6.3642e+05    1.6378e+00    3.1916e-02    -1.0986e-03   2.2719e+05    
18          257         1.7996e+06    6.5988e-01    6.3924e+05    1.6378e+00    3.1226e-02    -1.1865e-03   2.2437e+05    
19          271         1.9028e+06    6.5988e-01    6.4630e+05    1.6669e+00    3.0688e-02    -1.2742e-03   2.2437e+05    
20          285         1.9984e+06    6.5940e-01    6.4630e+05    1.6043e+00    3.0106e-02    -1.3242e-03   2.1590e+05    
21          300         2.1016e+06    6.5940e-01    6.5194e+05    1.6043e+00    2.9631e-02    -1.4127e-03   2.2437e+05    
22          314         2.2000e+06    6.5940e-01    6.5053e+05    1.6043e+00    2.9162e-02    -1.4661e-03   2.2437e+05    
23          328         2.3008e+06    6.5940e-01    6.5335e+05    1.6669e+00    2.8747e-02    -1.5262e-03   2.2437e+05    
24          342         2.4034e+06    6.5892e-01    6.5759e+05    1.6043e+00    2.8397e-02    -1.5984e-03   2.2155e+05    
25          355         2.4995e+06    6.5892e-01    6.5900e+05    1.6043e+00    2.7994e-02    -1.6250e-03   2.2719e+05    
26          368         2.5965e+06    6.5892e-01    6.6888e+05    1.6043e+00    2.7566e-02    -1.6455e-03   2.2719e+05    
27          382         2.7016e+06    6.5844e-01    6.6464e+05    1.5415e+00    2.7255e-02    -1.6757e-03   2.2719e+05    
28          395         2.7996e+06    6.5844e-01    6.6888e+05    1.5750e+00    2.6836e-02    -1.7276e-03   2.3001e+05    
29          408         2.8983e+06    6.5797e-01    6.7029e+05    1.5122e+00    2.6443e-02    -1.7261e-03   2.2719e+05    
30          421         2.9976e+06    6.5797e-01    6.7452e+05    1.5122e+00    2.6136e-02    -1.7716e-03   2.2719e+05    
31          434         3.0972e+06    6.5749e-01    6.7593e+05    1.4499e+00    2.5722e-02    -1.7906e-03   2.2719e+05    
32          447         3.1976e+06    6.5749e-01    6.8017e+05    1.4499e+00    2.5486e-02    -1.8214e-03   2.2719e+05    
33          460         3.2986e+06    6.5701e-01    6.8017e+05    1.3885e+00    2.5155e-02    -1.8566e-03   5.2212e+04    
34          473         3.3998e+06    6.5701e-01    6.8581e+05    1.4170e+00    2.4849e-02    -1.8739e-03   2.2155e+05    
35          486         3.5019e+06    6.5701e-01    6.8722e+05    1.4170e+00    2.4535e-02    -1.8669e-03   2.2155e+05    
36          498         3.5965e+06    6.5654e-01    6.9146e+05    1.3562e+00    2.4287e-02    -1.9334e-03   2.2719e+05    
37          511         3.6995e+06    6.5654e-01    6.9146e+05    1.3562e+00    2.3956e-02    -1.9461e-03   2.2719e+05    
38          524         3.8034e+06    6.5654e-01    6.9710e+05    1.3885e+00    2.3743e-02    -1.9548e-03   2.2719e+05    
39          536         3.8995e+06    6.5606e-01    6.9851e+05    1.3284e+00    2.3409e-02    -1.9959e-03   2.2155e+05    
40          548         3.9963e+06    6.5606e-01    7.0133e+05    1.3284e+00    2.3243e-02    -2.0203e-03   2.3284e+05    
41          561         4.1017e+06    6.5606e-01    7.0274e+05    1.3562e+00    2.2942e-02    -2.0400e-03   2.2719e+05    
42          573         4.1993e+06    6.5558e-01    7.0839e+05    1.3284e+00    2.2740e-02    -2.1099e-03   2.1873e+05    
43          585         4.2978e+06    6.5558e-01    7.0980e+05    1.3284e+00    2.2546e-02    -2.0853e-03   2.1873e+05    
44          597         4.3966e+06    6.5558e-01    7.1262e+05    1.3562e+00    2.2281e-02    -2.1414e-03   2.2155e+05    
45          609         4.4959e+06    6.5510e-01    7.1403e+05    1.2970e+00    2.2155e-02    -2.1563e-03   2.2155e+05    
46          622         4.6041e+06    6.5510e-01    7.1403e+05    1.2970e+00    2.2015e-02    -2.2142e-03   2.2719e+05    
47          633         4.6959e+06    6.5510e-01    7.1968e+05    1.2970e+00    2.1765e-02    -2.2511e-03   2.2437e+05    
48          645         4.7968e+06    6.5463e-01    7.2109e+05    1.2398e+00    2.1603e-02    -2.2313e-03   2.2437e+05    
49          657         4.8980e+06    6.5463e-01    7.2109e+05    1.2398e+00    2.1447e-02    -2.3319e-03   2.2437e+05    
50          669         4.9998e+06    6.5463e-01    7.2532e+05    1.2701e+00    2.1334e-02    -2.3110e-03   2.2437e+05    
51          681         5.1022e+06    6.5463e-01    7.3097e+05    1.2970e+00    2.1173e-02    -2.3549e-03   2.2437e+05    
52          692         5.1963e+06    6.5415e-01    7.3238e+05    1.2398e+00    2.0991e-02    -2.4208e-03   2.2437e+05    
53          704         5.2998e+06    6.5415e-01    7.3238e+05    1.2398e+00    2.0894e-02    -2.4229e-03   2.2437e+05    
54          716         5.4036e+06    6.5415e-01    7.3661e+05    1.2701e+00    2.0696e-02    -2.4664e-03   2.2437e+05    
55          727         5.4993e+06    6.5415e-01    7.3661e+05    1.2701e+00    2.0696e-02    -2.5176e-03   2.2437e+05    
56          739         5.6042e+06    6.5415e-01    7.4226e+05    1.2970e+00    2.0472e-02    -2.5649e-03   2.2437e+05    
57          750         5.7008e+06    6.5415e-01    7.4367e+05    1.2970e+00    2.0390e-02    -2.5651e-03   2.2437e+05    
58          761         5.7980e+06    6.5367e-01    7.4367e+05    1.2398e+00    2.0337e-02    -2.6269e-03   2.2437e+05    
59          773         5.9044e+06    6.5367e-01    7.4790e+05    1.2398e+00    2.0175e-02    -2.6568e-03   2.1873e+05    
60          784         6.0028e+06    6.5367e-01    7.5355e+05    1.2398e+00    2.0146e-02    -2.6902e-03   2.2719e+05    
61          795         6.1014e+06    6.5367e-01    7.5355e+05    1.2701e+00    2.0004e-02    -2.7456e-03   2.2155e+05    
62          806         6.2007e+06    6.5367e-01    7.5355e+05    1.2701e+00    1.9977e-02    -2.7649e-03   2.2719e+05    
63          817         6.3005e+06    6.5367e-01    7.5919e+05    1.2701e+00    1.9846e-02    -2.8083e-03   2.2719e+05    
64          828         6.4008e+06    6.5367e-01    7.5919e+05    1.2970e+00    1.9802e-02    -2.8449e-03   2.2719e+05    
65          839         6.5019e+06    6.5367e-01    7.6483e+05    1.3284e+00    1.9635e-02    -2.8763e-03   2.2719e+05    
66          850         6.6030e+06    6.5319e-01    7.6483e+05    1.2701e+00    1.9700e-02    -2.9283e-03   2.2719e+05    
67          860         6.6958e+06    6.5319e-01    7.6483e+05    1.2701e+00    1.9494e-02    -2.9470e-03   2.2719e+05    
68          871         6.7980e+06    6.5319e-01    7.6483e+05    1.2701e+00    1.9470e-02    -3.0381e-03   2.2719e+05    
69          882         6.9013e+06    6.5319e-01    7.6483e+05    1.2970e+00    1.9351e-02    -3.0461e-03   2.3284e+05    
70          893         7.0047e+06    6.5319e-01    7.6483e+05    1.2970e+00    1.9218e-02    -3.0805e-03   2.2437e+05    
71          903         7.1001e+06    6.5319e-01    7.7330e+05    1.3284e+00    1.9273e-02    -3.1557e-03   2.2437e+05    
72          913         7.1953e+06    6.5319e-01    7.7330e+05    1.3284e+00    1.9169e-02    -3.1783e-03   2.2719e+05    
73          924         7.3014e+06    6.5319e-01    7.8459e+05    1.3284e+00    1.9073e-02    -3.1797e-03   2.2437e+05    
74          934         7.3979e+06    6.5319e-01    7.8459e+05    1.3562e+00    1.9134e-02    -3.2562e-03   2.2719e+05    
75          944         7.4956e+06    6.5319e-01    7.8459e+05    1.3562e+00    1.9003e-02    -3.2733e-03   2.2719e+05    
76          955         7.6031e+06    6.5272e-01    7.8459e+05    1.3284e+00    1.8893e-02    -3.2887e-03   2.3001e+05    
77          965         7.7022e+06    6.5272e-01    7.8459e+05    1.3284e+00    1.8921e-02    -3.3734e-03   2.3001e+05    
78          975         7.8013e+06    6.5272e-01    7.9588e+05    1.3562e+00    1.8791e-02    -3.3696e-03   2.2437e+05    
79          985         7.9016e+06    6.5272e-01    7.9588e+05    1.3562e+00    1.8680e-02    -3.3994e-03   2.2719e+05    
80          995         8.0017e+06    6.5272e-01    7.9588e+05    1.3885e+00    1.8700e-02    -3.4674e-03   2.3001e+05    
81          1005        8.1033e+06    6.5272e-01    7.9588e+05    1.3885e+00    1.8550e-02    -3.4999e-03   2.3001e+05    
82          1015        8.2049e+06    6.5272e-01    7.9588e+05    1.4170e+00    1.8535e-02    -3.5347e-03   2.2719e+05    
83          1024        8.2979e+06    6.5272e-01    8.0717e+05    1.4170e+00    1.8374e-02    -3.5877e-03   2.2719e+05    
84          1034        8.4010e+06    6.5272e-01    8.0717e+05    1.4170e+00    1.8230e-02    -3.5716e-03   2.3001e+05    
85          1043        8.4955e+06    6.5224e-01    8.0717e+05    1.3562e+00    1.8209e-02    -3.6783e-03   2.3848e+05    
86          1053        8.6002e+06    6.5224e-01    8.0717e+05    1.3885e+00    1.8090e-02    -3.6686e-03   2.2437e+05    
87          1062        8.6961e+06    6.5224e-01    8.0717e+05    1.4170e+00    1.7908e-02    -3.6958e-03   2.2719e+05    
88          1072        8.8026e+06    6.5224e-01    8.0717e+05    1.4170e+00    1.7939e-02    -3.7756e-03   2.3001e+05    
89          1081        8.9000e+06    6.5224e-01    8.0717e+05    1.4170e+00    1.7723e-02    -3.7997e-03   2.3001e+05    
90          1090        8.9976e+06    6.5224e-01    8.1846e+05    1.4499e+00    1.7713e-02    -3.8299e-03   2.2719e+05    
91          1099        9.0963e+06    6.5224e-01    8.1846e+05    1.4499e+00    1.7606e-02    -3.8765e-03   2.3848e+05    
92          1108        9.1955e+06    6.5224e-01    8.0717e+05    1.4789e+00    1.7476e-02    -3.9082e-03   2.3001e+05    
93          1117        9.2948e+06    6.5224e-01    8.1846e+05    1.4789e+00    1.7387e-02    -3.9543e-03   2.3848e+05    
94          1126        9.3966e+06    6.5176e-01    8.0717e+05    1.4170e+00    1.7235e-02    -3.9909e-03   2.2719e+05    
95          1135        9.4976e+06    6.5176e-01    8.2975e+05    1.4499e+00    1.7148e-02    -4.0487e-03   2.2719e+05    
96          1144        9.6017e+06    6.5176e-01    8.4669e+05    1.4499e+00    1.7034e-02    -4.0901e-03   2.3001e+05    
97          1153        9.7046e+06    6.5176e-01    8.4104e+05    1.4499e+00    1.6906e-02    -4.1515e-03   2.2437e+05    
98          1161        9.7986e+06    6.5176e-01    8.4669e+05    1.4789e+00    1.6788e-02    -4.1798e-03   2.2719e+05    
99          1170        9.9045e+06    6.5176e-01    8.4669e+05    1.5122e+00    1.6662e-02    -4.2328e-03   2.2719e+05    
100         1178        9.9994e+06    6.5176e-01    8.6362e+05    1.5122e+00    1.6548e-02    -4.3093e-03   2.3001e+05    
101         1186        1.0096e+07    6.5128e-01    8.4669e+05    1.4789e+00    1.6380e-02    -4.3438e-03   2.3566e+05    
102         1195        1.0205e+07    6.5128e-01    8.6362e+05    1.4789e+00    1.6261e-02    -4.4037e-03   2.2719e+05    
103         1203        1.0304e+07    6.5128e-01    8.4669e+05    1.4789e+00    1.6123e-02    -4.4271e-03   2.2719e+05    
104         1211        1.0402e+07    6.5128e-01    8.6362e+05    1.5122e+00    1.6006e-02    -4.5032e-03   2.3001e+05    
105         1219        1.0503e+07    6.5128e-01    8.6362e+05    1.5122e+00    1.5877e-02    -4.5714e-03   2.2719e+05    
106         1227        1.0605e+07    6.5128e-01    8.6927e+05    1.5750e+00    1.5732e-02    -4.6054e-03   2.1873e+05    
107         1235        1.0706e+07    6.5081e-01    8.7490e+05    1.5122e+00    1.5588e-02    -4.6979e-03   2.2437e+05    
108         1242        1.0797e+07    6.5081e-01    8.6927e+05    1.5415e+00    1.5465e-02    -4.7266e-03   2.2437e+05    
109         1250        1.0901e+07    6.5081e-01    8.6927e+05    1.5415e+00    1.5336e-02    -4.7818e-03   2.2437e+05    
110         1258        1.1007e+07    6.5081e-01    8.8619e+05    1.5415e+00    1.5169e-02    -4.8644e-03   2.2155e+05    
111         1265        1.1101e+07    6.5081e-01    8.6927e+05    1.6043e+00    1.5000e-02    -4.8962e-03   2.2719e+05    
112         1272        1.1194e+07    6.5081e-01    8.8619e+05    1.6043e+00    1.4926e-02    -5.0264e-03   2.1873e+05    
113         1280        1.1303e+07    6.5033e-01    8.8619e+05    1.5750e+00    1.4779e-02    -5.0742e-03   2.2437e+05    
114         1287        1.1400e+07    6.5033e-01    8.9185e+05    1.5750e+00    1.4618e-02    -5.1229e-03   2.2437e+05    
115         1294        1.1495e+07    6.5033e-01    8.8619e+05    1.6043e+00    1.4454e-02    -5.2043e-03   2.1873e+05    
116         1301        1.1595e+07    6.5033e-01    8.9185e+05    1.6043e+00    1.4350e-02    -5.2302e-03   2.2437e+05    
117         1308        1.1694e+07    6.4985e-01    8.9185e+05    1.5708e+00    1.4195e-02    -5.3004e-03   2.2437e+05    
118         1315        1.1793e+07    6.4985e-01    8.9748e+05    1.6043e+00    1.4024e-02    -5.3999e-03   2.2719e+05    
119         1322        1.1896e+07    6.4985e-01    8.9185e+05    1.6043e+00    1.3927e-02    -5.4270e-03   2.2437e+05    
120         1329        1.1998e+07    6.4985e-01    8.9185e+05    1.6378e+00    1.3788e-02    -5.4955e-03   2.2437e+05    
121         1336        1.2101e+07    6.4938e-01    9.0877e+05    1.6043e+00    1.3637e-02    -5.5905e-03   2.2437e+05    
122         1343        1.2207e+07    6.4938e-01    8.9185e+05    1.6043e+00    1.3533e-02    -5.6154e-03   2.2437e+05    
123         1349        1.2297e+07    6.4938e-01    8.9185e+05    1.6669e+00    1.3390e-02    -5.6873e-03   2.1873e+05    
124         1356        1.2403e+07    6.4938e-01    9.0877e+05    1.6669e+00    1.3255e-02    -5.7991e-03   2.1873e+05    
125         1362        1.2497e+07    6.4890e-01    9.1442e+05    1.6378e+00    1.3163e-02    -5.8100e-03   2.2155e+05    
126         1369        1.2606e+07    6.4890e-01    9.1442e+05    1.6378e+00    1.3055e-02    -5.8783e-03   2.2155e+05    
127         1375        1.2699e+07    6.4890e-01    9.2006e+05    1.6669e+00    1.2920e-02    -5.9935e-03   2.2155e+05    
128         1381        1.2796e+07    6.4842e-01    9.1442e+05    1.6043e+00    1.2857e-02    -6.0109e-03   2.2719e+05    
129         1387        1.2893e+07    6.4842e-01    9.1442e+05    1.6378e+00    1.2740e-02    -6.0701e-03   2.2437e+05    
130         1394        1.3005e+07    6.4842e-01    9.2006e+05    1.6378e+00    1.2584e-02    -6.1889e-03   2.2437e+05    
131         1400        1.3105e+07    6.4794e-01    9.2006e+05    1.6378e+00    1.2473e-02    -6.2263e-03   2.1873e+05    
132         1406        1.3206e+07    6.4794e-01    9.1442e+05    1.6378e+00    1.2436e-02    -6.2386e-03   2.1873e+05    
133         1412        1.3305e+07    6.4794e-01    9.3135e+05    1.6669e+00    1.2283e-02    -6.3407e-03   2.2437e+05    
134         1418        1.3407e+07    6.4747e-01    9.3135e+05    1.6669e+00    1.2212e-02    -6.3874e-03   2.1873e+05    
135         1423        1.3495e+07    6.4747e-01    9.3700e+05    1.6669e+00    1.2202e-02    -6.4261e-03   2.1308e+05    
136         1429        1.3598e+07    6.4747e-01    9.3700e+05    1.7001e+00    1.2115e-02    -6.4771e-03   2.1873e+05    
137         1435        1.3701e+07    6.4699e-01    9.3135e+05    1.6378e+00    1.2048e-02    -6.5330e-03   2.1873e+05    
138         1441        1.3809e+07    6.4699e-01    9.3700e+05    1.6669e+00    1.1973e-02    -6.5790e-03   2.1873e+05    
139         1446        1.3899e+07    6.4651e-01    9.3700e+05    1.6378e+00    1.1871e-02    -6.6269e-03   2.1873e+05    
140         1452        1.4005e+07    6.4651e-01    9.4264e+05    1.6378e+00    1.1790e-02    -6.6975e-03   2.1873e+05    
141         1457        1.4096e+07    6.4651e-01    9.4264e+05    1.7001e+00    1.1728e-02    -6.7257e-03   2.1873e+05    
142         1463        1.4209e+07    6.4603e-01    9.3700e+05    1.6669e+00    1.1740e-02    -6.7381e-03   2.1873e+05    
143         1468        1.4301e+07    6.4603e-01    9.3700e+05    1.6669e+00    1.1712e-02    -6.7921e-03   2.1308e+05    
144         1473        1.4392e+07    6.4556e-01    9.5393e+05    1.6378e+00    1.1672e-02    -6.8842e-03   2.1590e+05    
145         1479        1.4506e+07    6.4556e-01    9.5393e+05    1.6378e+00    1.1632e-02    -6.9008e-03   2.1308e+05    
146         1484        1.4603e+07    6.4556e-01    9.3700e+05    1.7001e+00    1.1645e-02    -6.9357e-03   2.1590e+05    
147         1489        1.4699e+07    6.4508e-01    9.5958e+05    1.6669e+00    1.1581e-02    -6.9829e-03   2.2155e+05    
148         1494        1.4793e+07    6.4508e-01    9.5393e+05    1.6669e+00    1.1433e-02    -7.0169e-03   2.1308e+05    
149         1499        1.4891e+07    6.4460e-01    9.6522e+05    1.6378e+00    1.1397e-02    -7.0563e-03   2.1590e+05    
150         1504        1.4991e+07    6.4460e-01    9.5958e+05    1.6669e+00    1.1560e-02    -7.0960e-03   2.1308e+05    
151         1510        1.5109e+07    6.4413e-01    9.5958e+05    1.6378e+00    1.1581e-02    -7.1212e-03   2.1590e+05    
152         1515        1.5207e+07    6.4413e-01    9.6522e+05    1.6669e+00    1.1539e-02    -7.1786e-03   2.1308e+05    
153         1520        1.5309e+07    6.4413e-01    9.6522e+05    1.7001e+00    1.1526e-02    -7.2138e-03   5.2212e+04    
154         1524        1.5392e+07    6.4365e-01    9.5958e+05    1.6378e+00    1.1539e-02    -7.2200e-03   2.1590e+05    
155         1529        1.5494e+07    6.4365e-01    9.5958e+05    1.7001e+00    1.1513e-02    -7.2651e-03   2.1308e+05    
156         1534        1.5596e+07    6.4317e-01    9.7651e+05    1.6669e+00    1.1442e-02    -7.3575e-03   2.1590e+05    
157         1539        1.5702e+07    6.4317e-01    9.7651e+05    1.6669e+00    1.1451e-02    -7.3643e-03   2.2437e+05    
158         1544        1.5809e+07    6.4269e-01    9.8216e+05    1.6669e+00    1.1574e-02    -7.3247e-03   2.1590e+05    
159         1548        1.5894e+07    6.4269e-01    9.8216e+05    1.7001e+00    1.1614e-02    -7.3819e-03   2.1590e+05    
