# 1: pvtu_step
# 2: step
# 3: time (yr)
# 4: trench (rad)
# 5: slab depth (m)
# 6: 100km dip (rad)
# 7: subducting plate velocity (m/yr)
# 8: overiding plate velocity (m/yr)
# 9: mechanical decoupling depth (m)
0           0           0.0000e+00    6.6035e-01    2.0603e+05    6.2743e-01    5.7491e-02    -7.8512e-04   -1.0000e+00   
1           19          1.0199e+05    6.5940e-01    2.3989e+05    7.2555e-01    8.5894e-02    3.4795e-03    -1.0000e+00   
2           35          1.9842e+05    6.5892e-01    2.6812e+05    8.1692e-01    1.0902e-01    5.7251e-03    -1.0000e+00   
3           49          2.9683e+05    6.5892e-01    2.8646e+05    8.8811e-01    1.2597e-01    5.3098e-03    -1.0000e+00   
4           62          4.0266e+05    6.5844e-01    3.0763e+05    8.8811e-01    1.4313e-01    4.3632e-03    -1.0000e+00   
5           73          4.9806e+05    6.5844e-01    3.3021e+05    9.2714e-01    1.6824e-01    4.3222e-03    8.8902e+04    
6           86          6.0337e+05    6.5844e-01    3.5278e+05    9.4617e-01    2.0976e-01    4.0002e-03    1.0301e+05    
7           102         7.0059e+05    6.5797e-01    3.8101e+05    1.0339e+00    2.8405e-01    2.9474e-03    1.1430e+05    
8           127         8.0022e+05    6.5701e-01    4.3745e+05    1.1598e+00    3.9457e-01    9.3260e-03    1.2277e+05    
9           155         9.0106e+05    6.5654e-01    4.9390e+05    1.3284e+00    4.7088e-01    1.3368e-02    1.6228e+05    
10          182         9.9963e+05    6.5654e-01    5.5034e+05    1.4789e+00    4.3014e-01    7.0151e-03    1.4817e+05    
11          205         1.1009e+06    6.5654e-01    5.8562e+05    1.5415e+00    2.2554e-01    -9.5414e-03   1.3406e+05    
12          218         1.1988e+06    6.5606e-01    6.0255e+05    1.5415e+00    5.8822e-02    -2.8854e-02   1.2277e+05    
13          223         1.3127e+06    6.5558e-01    6.0820e+05    1.5080e+00    3.2649e-02    -3.0035e-02   1.2277e+05    
14          226         1.4087e+06    6.5510e-01    6.1808e+05    1.4499e+00    2.6445e-02    -3.0014e-02   1.0866e+05    
15          229         1.5116e+06    6.5463e-01    6.1808e+05    1.4457e+00    2.3895e-02    -3.0326e-02   9.4546e+04    
16          231         1.5821e+06    6.5415e-01    6.2372e+05    1.4170e+00    2.2455e-02    -3.0453e-02   9.4546e+04    
17          234         1.6903e+06    6.5367e-01    6.2937e+05    1.4170e+00    2.1367e-02    -3.0725e-02   9.7368e+04    
18          237         1.8002e+06    6.5367e-01    6.3078e+05    1.4457e+00    2.0715e-02    -3.1069e-02   1.0301e+05    
19          240         1.9114e+06    6.5319e-01    6.3360e+05    1.4170e+00    1.9874e-02    -3.1530e-02   9.7368e+04    
20          242         1.9868e+06    6.5272e-01    6.4066e+05    1.4170e+00    1.8918e-02    -3.1875e-02   9.7368e+04    
21          245         2.1017e+06    6.5224e-01    6.4630e+05    1.3844e+00    1.8539e-02    -3.2185e-02   1.0301e+05    
22          248         2.2175e+06    6.5176e-01    6.4630e+05    1.3562e+00    1.8078e-02    -3.2569e-02   9.7368e+04    
23          250         2.2953e+06    6.5128e-01    6.5194e+05    1.3562e+00    1.7469e-02    -3.3026e-02   9.7368e+04    
24          253         2.4131e+06    6.5081e-01    6.5759e+05    1.3244e+00    1.6991e-02    -3.3580e-02   9.4546e+04    
25          255         2.4922e+06    6.5033e-01    6.6323e+05    1.2970e+00    1.6614e-02    -3.4004e-02   9.4546e+04    
26          258         2.6115e+06    6.4985e-01    6.6323e+05    1.2701e+00    1.6404e-02    -3.4247e-02   9.7368e+04    
27          260         2.6913e+06    6.4938e-01    6.6323e+05    1.2701e+00    1.6195e-02    -3.4496e-02   9.4546e+04    
28          263         2.8117e+06    6.4890e-01    6.6888e+05    1.2398e+00    1.5813e-02    -3.4988e-02   9.7368e+04    
29          265         2.8922e+06    6.4842e-01    6.6888e+05    1.2398e+00    1.5415e-02    -3.5513e-02   8.8902e+04    
30          268         3.0133e+06    6.4794e-01    6.7452e+05    1.2398e+00    1.5294e-02    -3.5778e-02   9.4546e+04    
31          270         3.0940e+06    6.4747e-01    6.8017e+05    1.2398e+00    1.4738e-02    -3.6288e-02   9.4546e+04    
32          273         3.2171e+06    6.4699e-01    6.8017e+05    1.2101e+00    1.4274e-02    -3.7034e-02   9.4546e+04    
33          275         3.2978e+06    6.4651e-01    6.9710e+05    1.2398e+00    1.4095e-02    -3.7375e-02   9.4546e+04    
34          278         3.4165e+06    6.4603e-01    6.9710e+05    1.1847e+00    1.4092e-02    -3.7435e-02   9.4546e+04    
35          280         3.4941e+06    6.4508e-01    6.9146e+05    1.1319e+00    1.4099e-02    -3.7603e-02   8.8902e+04    
36          283         3.6095e+06    6.4365e-01    6.9146e+05    1.0339e+00    1.3721e-02    -3.8229e-02   9.1724e+04    
37          285         3.6848e+06    6.4413e-01    6.9710e+05    1.1319e+00    1.3588e-02    -3.8616e-02   8.8902e+04    
38          288         3.7960e+06    6.4222e-01    7.0274e+05    9.8878e-01    1.3561e-02    -3.8833e-02   9.4546e+04    
39          291         3.9053e+06    6.4174e-01    7.0274e+05    9.8878e-01    1.3389e-02    -3.9082e-02   8.8902e+04    
40          294         4.0127e+06    6.4126e-01    7.0839e+05    9.8878e-01    1.3181e-02    -3.9721e-02   9.4546e+04    
41          296         4.0833e+06    6.4078e-01    7.1403e+05    1.0339e+00    1.3270e-02    -3.9887e-02   9.4546e+04    
42          299         4.1880e+06    6.3983e-01    7.1403e+05    9.6860e-01    1.3362e-02    -4.0035e-02   8.8902e+04    
43          302         4.2917e+06    6.3935e-01    7.1968e+05    9.8878e-01    1.3305e-02    -4.0758e-02   8.8902e+04    
44          305         4.3941e+06    6.3887e-01    7.1968e+05    9.8878e-01    1.3232e-02    -4.1173e-02   8.8902e+04    
45          308         4.4947e+06    6.3840e-01    7.2532e+05    9.8878e-01    1.3367e-02    -4.1335e-02   8.8902e+04    
46          311         4.5942e+06    6.3744e-01    7.3097e+05    9.6860e-01    1.3267e-02    -4.1745e-02   8.8901e+04    
47          314         4.6929e+06    6.3697e-01    7.3097e+05    9.8878e-01    1.3296e-02    -4.2304e-02   8.8901e+04    
48          317         4.7902e+06    6.3649e-01    7.3661e+05    9.8878e-01    1.3364e-02    -4.2566e-02   9.4546e+04    
49          320         4.8864e+06    6.3601e-01    7.3661e+05    1.0126e+00    1.3794e-02    -4.2687e-02   9.4546e+04    
50          324         5.0136e+06    6.3506e-01    7.4226e+05    9.6860e-01    1.3629e-02    -4.3550e-02   8.8902e+04    
51          327         5.1077e+06    6.3458e-01    7.4226e+05    9.8878e-01    1.3829e-02    -4.3767e-02   9.4546e+04    
52          330         5.2007e+06    6.3410e-01    7.4226e+05    1.0012e+00    1.4059e-02    -4.3991e-02   9.4546e+04    
53          333         5.2931e+06    6.3315e-01    7.4226e+05    9.6860e-01    1.3801e-02    -4.4932e-02   8.8902e+04    
54          337         5.4141e+06    6.3267e-01    7.4226e+05    9.8878e-01    1.3942e-02    -4.5250e-02   9.4546e+04    
55          340         5.5034e+06    6.3219e-01    7.6201e+05    1.0296e+00    1.4348e-02    -4.5442e-02   9.4546e+04    
56          343         5.5925e+06    6.3124e-01    7.6201e+05    9.8878e-01    1.4743e-02    -4.6215e-02   9.4546e+04    
57          347         5.7097e+06    6.3076e-01    7.6201e+05    9.8878e-01    1.5069e-02    -4.6480e-02   8.8902e+04    
58          350         5.7963e+06    6.2981e-01    7.6483e+05    9.8878e-01    1.5820e-02    -4.6446e-02   9.4546e+04    
59          354         5.9113e+06    6.2933e-01    7.6483e+05    1.0126e+00    1.5998e-02    -4.7254e-02   9.4546e+04    
60          357         5.9962e+06    6.2837e-01    7.6483e+05    1.0012e+00    1.7018e-02    -4.7428e-02   8.8902e+04    
61          361         6.1082e+06    6.2790e-01    7.6483e+05    9.8878e-01    1.8269e-02    -4.7043e-02   8.8902e+04    
62          364         6.1923e+06    6.2694e-01    7.8459e+05    9.8878e-01    1.9048e-02    -4.7833e-02   9.4546e+04    
63          368         6.3030e+06    6.2646e-01    7.8459e+05    1.0296e+00    2.0375e-02    -4.7572e-02   9.4546e+04    
64          372         6.4129e+06    6.2551e-01    7.8459e+05    9.6860e-01    2.0963e-02    -4.7712e-02   9.4546e+04    
65          375         6.4949e+06    6.2503e-01    7.8459e+05    1.0339e+00    2.2968e-02    -4.7445e-02   9.7368e+04    
66          379         6.6040e+06    6.2408e-01    7.9588e+05    9.8878e-01    2.4342e-02    -4.6884e-02   9.4546e+04    
67          383         6.7133e+06    6.2360e-01    7.9588e+05    1.0126e+00    2.5861e-02    -4.7229e-02   9.7368e+04    
68          386         6.7953e+06    6.2265e-01    7.9588e+05    1.0126e+00    2.8492e-02    -4.6121e-02   9.7368e+04    
69          390         6.9043e+06    6.2217e-01    8.0717e+05    1.0095e+00    2.9792e-02    -4.5518e-02   8.8902e+04    
70          394         7.0125e+06    6.2169e-01    8.0717e+05    1.0339e+00    3.0271e-02    -4.5916e-02   9.4546e+04    
71          397         7.0928e+06    6.2074e-01    8.0717e+05    1.0126e+00    3.2237e-02    -4.4874e-02   9.7368e+04    
72          401         7.1994e+06    6.1978e-01    8.0717e+05    9.6860e-01    3.1716e-02    -4.5206e-02   9.4546e+04    
73          405         7.3084e+06    6.1931e-01    8.0717e+05    9.8878e-01    3.2696e-02    -4.4749e-02   1.0301e+05    
74          408         7.3903e+06    6.1883e-01    8.0717e+05    1.0126e+00    3.3587e-02    -4.3877e-02   9.7368e+04    
75          412         7.5005e+06    6.1835e-01    8.1846e+05    1.0339e+00    3.2168e-02    -4.4389e-02   9.7368e+04    
76          416         7.6136e+06    6.1740e-01    8.1846e+05    9.8878e-01    3.2461e-02    -4.4128e-02   1.0301e+05    
77          419         7.6995e+06    6.1692e-01    8.2975e+05    1.0126e+00    3.2256e-02    -4.3634e-02   9.4546e+04    
78          422         7.7862e+06    6.1596e-01    8.0717e+05    9.6860e-01    3.0897e-02    -4.4472e-02   9.7368e+04    
79          426         7.9019e+06    6.1549e-01    8.0717e+05    9.8878e-01    3.0389e-02    -4.4410e-02   1.0301e+05    
80          429         7.9892e+06    6.1501e-01    8.0717e+05    1.0126e+00    3.0337e-02    -4.3655e-02   9.7368e+04    
81          433         8.1070e+06    6.1405e-01    8.4104e+05    9.6860e-01    2.9161e-02    -4.4006e-02   9.4546e+04    
82          436         8.1955e+06    6.1358e-01    8.4104e+05    1.0126e+00    2.8106e-02    -4.4028e-02   9.4546e+04    
83          440         8.3147e+06    6.1262e-01    8.4104e+05    9.6860e-01    2.7353e-02    -4.3853e-02   9.7368e+04    
84          443         8.4051e+06    6.1215e-01    8.0717e+05    9.6860e-01    2.6211e-02    -4.4384e-02   9.7368e+04    
85          446         8.4955e+06    6.1167e-01    8.0717e+05    1.0339e+00    2.5268e-02    -4.4252e-02   9.7368e+04    
86          449         8.5867e+06    6.1071e-01    8.6362e+05    9.6860e-01    2.4413e-02    -4.4223e-02   9.7368e+04    
87          453         8.7093e+06    6.1024e-01    8.5233e+05    9.8878e-01    2.3732e-02    -4.4164e-02   9.4546e+04    
88          456         8.8020e+06    6.0976e-01    8.5233e+05    9.8878e-01    2.3188e-02    -4.4132e-02   1.0301e+05    
89          459         8.8950e+06    6.0880e-01    8.5233e+05    9.6860e-01    2.2488e-02    -4.4028e-02   9.4546e+04    
90          462         8.9886e+06    6.0833e-01    8.7490e+05    9.7150e-01    2.2209e-02    -4.4270e-02   9.7368e+04    
91          466         9.1133e+06    6.0737e-01    8.7490e+05    9.4617e-01    2.2001e-02    -4.4186e-02   1.0301e+05    
92          469         9.2070e+06    6.0690e-01    8.7490e+05    9.6860e-01    2.1724e-02    -4.4125e-02   9.7368e+04    
93          472         9.3009e+06    6.0642e-01    8.6362e+05    9.8878e-01    2.1604e-02    -4.3917e-02   9.7368e+04    
94          475         9.3952e+06    6.0546e-01    8.7490e+05    9.4617e-01    2.1456e-02    -4.3919e-02   1.0301e+05    
95          478         9.4894e+06    6.0499e-01    8.9185e+05    9.6860e-01    2.1270e-02    -4.4071e-02   9.7368e+04    
96          482         9.6147e+06    6.0403e-01    8.9748e+05    9.4617e-01    2.1372e-02    -4.4220e-02   9.7368e+04    
97          485         9.7082e+06    6.0355e-01    8.9748e+05    9.2714e-01    2.1379e-02    -4.4326e-02   9.7368e+04    
98          488         9.8015e+06    6.0308e-01    8.9748e+05    9.2987e-01    2.1334e-02    -4.4375e-02   9.7368e+04    
99          491         9.8946e+06    6.0212e-01    8.9748e+05    9.4617e-01    2.1232e-02    -4.4513e-02   9.4546e+04    
100         494         9.9874e+06    6.0165e-01    9.0877e+05    9.4617e-01    2.1321e-02    -4.4662e-02   9.7368e+04    
101         498         1.0110e+07    6.0117e-01    9.0877e+05    9.6860e-01    2.1375e-02    -4.4843e-02   9.7368e+04    
102         501         1.0202e+07    6.0021e-01    9.1442e+05    9.2715e-01    2.1561e-02    -4.4971e-02   8.8902e+04    
103         504         1.0293e+07    5.9974e-01    9.1442e+05    9.4617e-01    2.1647e-02    -4.5340e-02   9.4546e+04    
104         508         1.0414e+07    5.9878e-01    9.1442e+05    9.2714e-01    2.1761e-02    -4.5589e-02   9.7368e+04    
105         511         1.0503e+07    5.9830e-01    9.3135e+05    9.4617e-01    2.1780e-02    -4.5885e-02   9.7368e+04    
106         514         1.0592e+07    5.9735e-01    9.3135e+05    9.0602e-01    2.1841e-02    -4.6469e-02   9.4546e+04    
107         518         1.0709e+07    5.9687e-01    9.3135e+05    9.2714e-01    2.1975e-02    -4.6753e-02   9.7368e+04    
108         521         1.0796e+07    5.9592e-01    9.3700e+05    8.9067e-01    2.2053e-02    -4.7203e-02   9.7368e+04    
109         525         1.0911e+07    5.9544e-01    9.3700e+05    9.0601e-01    2.2051e-02    -4.7657e-02   8.8902e+04    
110         528         1.0996e+07    5.9449e-01    9.3700e+05    8.8811e-01    2.2119e-02    -4.8144e-02   9.7368e+04    
111         532         1.1108e+07    5.9401e-01    9.5393e+05    9.2714e-01    2.2164e-02    -4.8556e-02   9.7368e+04    
112         535         1.1191e+07    5.9305e-01    9.5393e+05    9.2714e-01    2.2168e-02    -4.9323e-02   9.4546e+04    
113         539         1.1300e+07    5.9258e-01    9.6522e+05    9.4617e-01    2.2165e-02    -4.9845e-02   9.4546e+04    
114         543         1.1407e+07    5.9162e-01    9.5958e+05    8.8811e-01    2.2148e-02    -5.0455e-02   9.7368e+04    
115         546         1.1487e+07    5.9114e-01    9.5958e+05    9.2714e-01    2.2160e-02    -5.1124e-02   9.4546e+04    
116         550         1.1592e+07    5.9019e-01    9.7651e+05    9.2714e-01    2.2183e-02    -5.1695e-02   9.7368e+04    
117         554         1.1695e+07    5.8924e-01    9.7651e+05    9.2714e-01    2.2054e-02    -5.2680e-02   9.7368e+04    
118         558         1.1796e+07    5.8828e-01    9.7651e+05    9.0601e-01    2.1967e-02    -5.3286e-02   9.4546e+04    
119         562         1.1897e+07    5.8780e-01    9.8216e+05    9.2715e-01    2.1931e-02    -5.4020e-02   9.4546e+04    
120         566         1.1996e+07    5.8685e-01    9.8216e+05    9.0601e-01    2.1746e-02    -5.4874e-02   9.4546e+04    
121         570         1.2093e+07    5.8589e-01    9.8780e+05    8.8811e-01    2.1651e-02    -5.5641e-02   9.7368e+04    
122         574         1.2189e+07    5.8542e-01    9.9908e+05    9.2714e-01    2.1478e-02    -5.6602e-02   9.4546e+04    
123         579         1.2306e+07    5.8446e-01    9.9908e+05    9.2714e-01    2.1272e-02    -5.7498e-02   9.7368e+04    
124         583         1.2399e+07    5.8351e-01    1.0047e+06    9.2714e-01    2.1171e-02    -5.8440e-02   9.4546e+04    
125         587         1.2490e+07    5.8255e-01    1.0047e+06    9.2714e-01    2.0983e-02    -5.9380e-02   9.7368e+04    
126         592         1.2603e+07    5.8160e-01    1.0104e+06    9.0601e-01    2.0822e-02    -6.0452e-02   9.7368e+04    
127         596         1.2691e+07    5.8064e-01    1.0217e+06    9.2715e-01    2.0627e-02    -6.1765e-02   9.7368e+04    
128         601         1.2799e+07    5.7969e-01    1.0273e+06    9.2714e-01    2.0696e-02    -6.2603e-02   9.4546e+04    
129         606         1.2905e+07    5.7873e-01    1.0273e+06    9.2715e-01    2.0652e-02    -6.3576e-02   9.7368e+04    
130         611         1.3009e+07    5.7778e-01    1.0330e+06    9.2715e-01    2.0720e-02    -6.4335e-02   9.4546e+04    
131         615         1.3091e+07    5.7683e-01    1.0330e+06    9.2714e-01    2.0684e-02    -6.5881e-02   1.0301e+05    
132         620         1.3192e+07    5.7587e-01    1.0273e+06    9.2714e-01    2.1484e-02    -6.5981e-02   1.0866e+05    
133         625         1.3291e+07    5.7492e-01    1.0499e+06    9.4617e-01    2.1659e-02    -6.7363e-02   1.0301e+05    
134         631         1.3406e+07    5.7396e-01    1.0442e+06    9.6860e-01    2.2063e-02    -6.7756e-02   9.7368e+04    
135         636         1.3501e+07    5.7301e-01    1.0555e+06    9.6860e-01    2.2622e-02    -6.9105e-02   9.7368e+04    
136         641         1.3594e+07    5.7157e-01    1.0499e+06    9.6860e-01    2.4117e-02    -6.9453e-02   9.7368e+04    
137         647         1.3706e+07    5.7062e-01    1.0499e+06    9.6860e-01    2.5768e-02    -7.0016e-02   9.7368e+04    
138         652         1.3798e+07    5.6967e-01    1.0668e+06    9.8878e-01    2.7606e-02    -7.0236e-02   1.0301e+05    
139         658         1.3908e+07    5.6823e-01    1.0668e+06    9.4617e-01    3.0542e-02    -6.9766e-02   1.0866e+05    
140         663         1.3999e+07    5.6728e-01    1.0725e+06    9.8878e-01    3.3986e-02    -7.0480e-02   1.0301e+05    
141         669         1.4108e+07    5.6632e-01    1.0725e+06    9.6860e-01    3.9377e-02    -6.8284e-02   1.0866e+05    
142         674         1.4200e+07    5.6537e-01    1.0894e+06    1.0126e+00    4.5707e-02    -6.7174e-02   1.0866e+05    
143         680         1.4304e+07    5.6442e-01    1.0894e+06    9.6860e-01    5.3143e-02    -6.4071e-02   1.1148e+05    
144         686         1.4401e+07    5.6346e-01    1.0950e+06    9.8878e-01    6.3254e-02    -6.2058e-02   1.0866e+05    
145         693         1.4505e+07    5.6251e-01    1.1007e+06    9.8878e-01    7.6794e-02    -5.6371e-02   1.1995e+05    
146         700         1.4600e+07    5.6155e-01    1.0950e+06    9.8878e-01    9.5764e-02    -4.9786e-02   1.0866e+05    
147         708         1.4700e+07    5.6107e-01    1.0950e+06    1.0126e+00    1.1403e-01    -4.4959e-02   1.1430e+05    
148         717         1.4804e+07    5.6060e-01    1.1120e+06    1.0339e+00    1.3241e-01    -4.1949e-02   1.1995e+05    
149         726         1.4902e+07    5.5964e-01    1.1176e+06    9.8878e-01    1.4652e-01    -3.7726e-02   1.2277e+05    
150         735         1.4996e+07    5.5916e-01    1.1233e+06    9.8878e-01    1.6050e-01    -3.4430e-02   1.1430e+05    
151         745         1.5098e+07    5.5869e-01    1.1176e+06    9.8878e-01    1.6471e-01    -3.5455e-02   1.2841e+05    
152         755         1.5201e+07    5.5821e-01    1.1233e+06    9.8878e-01    1.6000e-01    -3.5715e-02   1.4252e+05    
153         764         1.5298e+07    5.5773e-01    1.1176e+06    1.0126e+00    1.5277e-01    -3.8943e-02   1.2277e+05    
154         773         1.5400e+07    5.5726e-01    1.1346e+06    1.0339e+00    1.3124e-01    -4.3766e-02   1.3970e+05    
155         781         1.5500e+07    5.5678e-01    1.1402e+06    1.0591e+00    1.1724e-01    -4.6507e-02   1.2559e+05    
156         788         1.5598e+07    5.5582e-01    1.1402e+06    1.0339e+00    1.0101e-01    -5.0013e-02   1.3406e+05    
157         795         1.5707e+07    5.5487e-01    1.1458e+06    1.0339e+00    8.3715e-02    -5.3872e-02   1.2277e+05    
158         800         1.5793e+07    5.5439e-01    1.1402e+06    1.0339e+00    7.0211e-02    -5.4276e-02   1.3406e+05    
159         806         1.5909e+07    5.5344e-01    1.1402e+06    1.0339e+00    5.9177e-02    -5.6772e-02   1.2277e+05    
