# 1: pvtu_step
# 2: step
# 3: time (yr)
# 4: trench (rad)
# 5: slab depth (m)
# 6: 100km dip (rad)
# 7: subducting plate velocity (m/yr)
# 8: overiding plate velocity (m/yr)
# 9: mechanical decoupling depth (m)
0           0           0.0000e+00    6.6035e-01    2.2296e+05    6.2743e-01    6.4658e-02    7.0304e-03    -1.0000e+00   
5           82          4.9704e+05    6.6035e-01    3.4714e+05    1.0126e+00    2.4758e-01    1.9722e-02    1.1430e+05    
10          217         1.0037e+06    6.5654e-01    6.0679e+05    1.2970e+00    7.8223e-02    -9.4396e-03   1.7357e+05    
15          230         1.5092e+06    6.5558e-01    6.3078e+05    1.1847e+00    4.0759e-02    -1.1658e-02   1.0301e+05    
20          242         2.0059e+06    6.5463e-01    6.5053e+05    1.1319e+00    3.6841e-02    -1.2814e-02   9.7368e+04    
25          252         2.5060e+06    6.5367e-01    6.7452e+05    1.0816e+00    3.5029e-02    -1.3325e-02   9.4546e+04    
30          263         3.0010e+06    6.5272e-01    6.9146e+05    1.0591e+00    3.3231e-02    -1.3763e-02   9.4546e+04    
35          272         3.4822e+06    6.5176e-01    7.0839e+05    1.0126e+00    3.1887e-02    -1.3683e-02   8.8901e+04    
40          282         3.9734e+06    6.5081e-01    7.1968e+05    1.0126e+00    3.0711e-02    -1.4082e-02   8.8902e+04    
45          292         4.5247e+06    6.4938e-01    7.3661e+05    9.6860e-01    3.0051e-02    -1.4242e-02   8.8902e+04    
50          301         5.0250e+06    6.4842e-01    7.5355e+05    9.6860e-01    2.9518e-02    -1.4586e-02   8.8902e+04    
55          310         5.5168e+06    6.4747e-01    7.6483e+05    9.6860e-01    2.9199e-02    -1.4910e-02   8.8902e+04    
60          319         6.0020e+06    6.4651e-01    7.8459e+05    9.6860e-01    2.9179e-02    -1.5144e-02   8.8902e+04    
65          328         6.4811e+06    6.4508e-01    7.9588e+05    9.2714e-01    2.9153e-02    -1.5397e-02   8.8902e+04    
70          338         7.0076e+06    6.4413e-01    8.0717e+05    9.2714e-01    2.9515e-02    -1.5663e-02   8.8902e+04    
75          347         7.4764e+06    6.4317e-01    8.2975e+05    9.6860e-01    2.9796e-02    -1.6008e-02   8.8902e+04    
80          357         7.9889e+06    6.4174e-01    8.4669e+05    9.2714e-01    3.0176e-02    -1.6273e-02   8.8902e+04    
85          367         8.4910e+06    6.4078e-01    8.7490e+05    9.4896e-01    3.0481e-02    -1.6703e-02   8.8902e+04    
90          377         8.9784e+06    6.3935e-01    8.9185e+05    9.2714e-01    3.0701e-02    -1.7221e-02   8.8902e+04    
95          388         9.4919e+06    6.3840e-01    8.9748e+05    9.4897e-01    3.0553e-02    -1.8068e-02   8.8901e+04    
100         400         1.0019e+07    6.3697e-01    9.3135e+05    9.4897e-01    2.9979e-02    -1.9284e-02   8.8902e+04    
105         412         1.0515e+07    6.3553e-01    9.4264e+05    9.6860e-01    2.8674e-02    -2.1060e-02   8.8902e+04    
110         425         1.1013e+07    6.3362e-01    9.5958e+05    9.6860e-01    2.6440e-02    -2.3520e-02   8.8902e+04    
115         439         1.1500e+07    6.3172e-01    9.7651e+05    9.6860e-01    2.3946e-02    -2.6774e-02   1.4817e+05    
120         455         1.1997e+07    6.2933e-01    9.9908e+05    1.0126e+00    2.1608e-02    -3.1222e-02   9.4546e+04    
125         474         1.2512e+07    6.2646e-01    1.0217e+06    1.0371e+00    2.1365e-02    -3.6063e-02   1.7921e+05    
130         494         1.3008e+07    6.2360e-01    1.0442e+06    1.1082e+00    2.9198e-02    -4.0575e-02   2.1026e+05    
135         520         1.3501e+07    6.2074e-01    1.0555e+06    1.1082e+00    8.0366e-02    -3.6804e-02   1.0301e+05    
140         572         1.4002e+07    6.1931e-01    1.0781e+06    9.6860e-01    2.5616e-01    -1.3687e-02   1.2277e+05    
145         633         1.4504e+07    6.1740e-01    1.1007e+06    9.2714e-01    1.5203e-01    -2.7783e-02   1.2277e+05    
150         665         1.5007e+07    6.1549e-01    1.1176e+06    9.2714e-01    9.2697e-02    -2.3448e-02   1.0301e+05    
155         687         1.5491e+07    6.1453e-01    1.1402e+06    8.5141e-01    9.1824e-02    -1.4717e-02   1.0301e+05    
160         711         1.5991e+07    6.1405e-01    1.1797e+06    7.8453e-01    1.0674e-01    -5.9087e-03   9.4546e+04    
165         740         1.6496e+07    6.1453e-01    1.2079e+06    7.2555e-01    1.3581e-01    5.4671e-04    9.7368e+04    
170         777         1.6998e+07    6.1501e-01    1.2362e+06    7.1283e-01    1.7041e-01    2.1817e-03    1.0301e+05    
175         817         1.7495e+07    6.1501e-01    1.2700e+06    7.2555e-01    1.4064e-01    -7.4662e-03   1.0301e+05    
180         845         1.8010e+07    6.1358e-01    1.2983e+06    6.9871e-01    7.6996e-02    -2.7324e-02   9.4546e+04    
185         864         1.8490e+07    6.1119e-01    1.3434e+06    7.1283e-01    5.4444e-02    -3.9828e-02   9.7368e+04    
190         886         1.8994e+07    6.0785e-01    1.3886e+06    7.2555e-01    4.8398e-02    -4.7701e-02   9.4546e+04    
195         912         1.9509e+07    6.0403e-01    1.4055e+06    7.5412e-01    4.5358e-02    -5.5020e-02   1.0301e+05    
200         940         1.9999e+07    5.9926e-01    1.4789e+06    7.8453e-01    5.2962e-02    -5.9339e-02   9.7368e+04    
205         978         2.0503e+07    5.9544e-01    1.4845e+06    7.9938e-01    1.2470e-01    -4.1963e-02   1.1712e+05    
210         1037        2.1004e+07    5.9353e-01    1.5297e+06    8.1692e-01    1.9931e-01    -2.7963e-02   1.3406e+05    
215         1080        2.1496e+07    5.9067e-01    1.5692e+06    8.1692e-01    9.7224e-02    -4.7279e-02   1.2277e+05    
220         1106        2.2007e+07    5.8733e-01    1.6143e+06    7.5412e-01    8.3061e-02    -4.0402e-02   1.0301e+05    
225         1129        2.2509e+07    5.8446e-01    1.6369e+06    6.8676e-01    8.5466e-02    -3.3671e-02   9.7368e+04    
230         1152        2.2995e+07    5.8255e-01    1.6877e+06    6.7348e-01    9.8221e-02    -2.9677e-02   1.0301e+05    
235         1178        2.3498e+07    5.8064e-01    1.7329e+06    6.3918e-01    1.0164e-01    -2.7446e-02   9.7368e+04    
240         1204        2.4003e+07    5.7873e-01    1.7950e+06    6.1746e-01    9.7339e-02    -2.7090e-02   9.7368e+04    
245         1229        2.4500e+07    5.7683e-01    1.8175e+06    5.9700e-01    9.1735e-02    -2.8668e-02   9.7368e+04    
250         1254        2.5000e+07    5.7492e-01    1.8796e+06    5.9700e-01    8.7083e-02    -3.0631e-02   9.7368e+04    
255         1279        2.5491e+07    5.7301e-01    1.9248e+06    6.0639e-01    8.3323e-02    -3.2234e-02   9.4546e+04    
260         1306        2.5995e+07    5.7062e-01    1.9699e+06    6.0639e-01    8.3784e-02    -3.2254e-02   1.0866e+05    
265         1335        2.6498e+07    5.6871e-01    2.0208e+06    6.1746e-01    8.8497e-02    -2.9976e-02   1.1430e+05    
270         1366        2.7002e+07    5.6680e-01    2.0659e+06    6.1746e-01    9.8077e-02    -2.6825e-02   1.1995e+05    
275         1398        2.7500e+07    5.6537e-01    2.1111e+06    6.2743e-01    1.0187e-01    -2.4298e-02   1.1995e+05    
280         1453        2.7996e+07    5.6394e-01    2.1562e+06    6.1746e-01    9.8246e-02    -2.4938e-02   1.2277e+05    
285         1495        2.8497e+07    5.6251e-01    2.2240e+06    5.8655e-01    9.7889e-02    -2.2083e-02   1.1430e+05    
290         1524        2.9004e+07    5.6107e-01    2.2522e+06    5.5947e-01    1.0085e-01    -1.8168e-02   1.0301e+05    
295         1552        2.9505e+07    5.6012e-01    2.3143e+06    5.3344e-01    1.0280e-01    -1.4092e-02   1.0866e+05    
300         1580        3.0007e+07    5.6012e-01    2.3425e+06    5.3344e-01    1.0493e-01    -1.0307e-02   1.0866e+05    
305         1608        3.0508e+07    5.5964e-01    2.3820e+06    5.1762e-01    1.0620e-01    -8.9566e-03   1.0866e+05    
310         1635        3.0992e+07    5.5964e-01    2.4441e+06    5.1762e-01    1.0409e-01    -8.7589e-03   1.0866e+05    
315         1664        3.1508e+07    5.5916e-01    2.4723e+06    5.1053e-01    1.0337e-01    -9.3986e-03   1.1430e+05    
320         1692        3.1993e+07    5.5916e-01    2.5344e+06    5.1762e-01    1.0048e-01    -1.1049e-02   1.2277e+05    
325         1721        3.2502e+07    5.5869e-01    2.5626e+06    5.2596e-01    9.8377e-02    -1.1820e-02   1.1995e+05    
330         1749        3.3007e+07    5.5821e-01    2.6078e+06    5.2596e-01    9.6078e-02    -1.2839e-02   1.2277e+05    
335         1777        3.3507e+07    5.5773e-01    2.6586e+06    5.3344e-01    9.7920e-02    -1.3309e-02   1.4817e+05    
340         1804        3.3994e+07    5.5726e-01    2.6981e+06    5.3344e-01    1.0010e-01    -1.2600e-02   1.7357e+05    
