# 1: pvtu_step
# 2: step
# 3: time (yr)
# 4: trench (rad)
# 5: slab depth (m)
# 6: 100km dip (rad)
0           0           0.0000e+00    6.3553e-01    2.0087e+05    1.1502e+00    
1           29          9.9656e+04    6.3592e-01    2.2588e+05    1.1170e+00    
2           59          1.9882e+05    6.3676e-01    2.4890e+05    1.0992e+00    
3           84          2.9920e+05    6.3758e-01    2.6834e+05    1.0883e+00    
4           105         3.9881e+05    6.3926e-01    2.8574e+05    1.0713e+00    
5           125         5.0201e+05    6.3950e-01    3.0262e+05    1.0793e+00    
6           145         5.9818e+05    6.4167e-01    3.2140e+05    1.0584e+00    
7           170         7.0046e+05    6.4508e-01    3.4204e+05    1.0188e+00    
8           200         7.9934e+05    6.4837e-01    3.6941e+05    9.6171e-01    
9           241         9.0097e+05    6.5205e-01    4.0634e+05    8.4300e-01    
10          300         1.0002e+06    6.5531e-01    4.6660e+05    6.3920e-01    
11          380         1.0995e+06    6.5712e-01    5.5076e+05    4.8533e-01    
12          440         1.2007e+06    6.5851e-01    5.9840e+05    4.7068e-01    
13          466         1.2999e+06    6.5987e-01    6.1110e+05    4.7850e-01    
14          485         1.3995e+06    6.6068e-01    6.1913e+05    4.8293e-01    
15          501         1.4987e+06    6.6138e-01    6.2567e+05    4.9512e-01    
16          516         1.6036e+06    6.6187e-01    6.3125e+05    4.9982e-01    
17          528         1.6988e+06    6.6204e-01    6.3657e+05    5.1677e-01    
18          539         1.7966e+06    6.6243e-01    6.4127e+05    5.2106e-01    
19          549         1.8964e+06    6.6249e-01    6.4569e+05    5.3567e-01    
20          559         2.0043e+06    6.6275e-01    6.4973e+05    5.4152e-01    
21          567         2.0952e+06    6.6281e-01    6.5378e+05    5.5205e-01    
22          576         2.2007e+06    6.6313e-01    6.5735e+05    5.4926e-01    
23          584         2.2961e+06    6.6317e-01    6.6127e+05    5.6945e-01    
24          593         2.4044e+06    6.6326e-01    6.6472e+05    5.7788e-01    
25          601         2.5026e+06    6.6335e-01    6.6809e+05    5.8552e-01    
26          609         2.6015e+06    6.6352e-01    6.7140e+05    5.9142e-01    
27          617         2.7017e+06    6.6361e-01    6.7466e+05    5.9683e-01    
28          625         2.8030e+06    6.6364e-01    6.7782e+05    6.0772e-01    
29          633         2.9051e+06    6.6385e-01    6.8095e+05    6.1363e-01    
30          640         2.9955e+06    6.6386e-01    6.8401e+05    6.2257e-01    
31          648         3.1005e+06    6.6428e-01    6.8665e+05    6.1542e-01    
32          655         3.1936e+06    6.6427e-01    6.8962e+05    6.3416e-01    
33          663         3.3015e+06    6.6425e-01    6.9217e+05    6.3829e-01    
34          670         3.3972e+06    6.6456e-01    6.9502e+05    6.4381e-01    
35          677         3.4941e+06    6.6447e-01    6.9750e+05    6.5336e-01    
36          685         3.6061e+06    6.6465e-01    6.9995e+05    6.5554e-01    
37          692         3.7053e+06    6.6466e-01    7.0232e+05    6.6402e-01    
38          699         3.8057e+06    6.6462e-01    7.0464e+05    6.7371e-01    
39          706         3.9068e+06    6.6492e-01    7.0696e+05    6.7213e-01    
40          712         3.9942e+06    6.6494e-01    7.0918e+05    6.8106e-01    
41          719         4.0976e+06    6.6511e-01    7.1144e+05    6.8298e-01    
42          726         4.2026e+06    6.6512e-01    7.1332e+05    6.8418e-01    
43          732         4.2933e+06    6.6527e-01    7.1552e+05    6.9015e-01    
44          739         4.3982e+06    6.6542e-01    7.1761e+05    6.9299e-01    
45          746         4.5051e+06    6.6542e-01    7.1946e+05    7.0137e-01    
46          752         4.5978e+06    6.6582e-01    7.2150e+05    6.9240e-01    
47          759         4.7074e+06    6.6581e-01    7.2326e+05    6.9919e-01    
48          765         4.8016e+06    6.6608e-01    7.2504e+05    6.9810e-01    
49          771         4.8961e+06    6.6624e-01    7.2702e+05    6.9961e-01    
50          778         5.0068e+06    6.6642e-01    7.2869e+05    6.9442e-01    
51          784         5.1022e+06    6.6650e-01    7.3040e+05    7.0407e-01    
52          790         5.1983e+06    6.6658e-01    7.3236e+05    7.0657e-01    
53          796         5.2956e+06    6.6675e-01    7.3401e+05    7.0983e-01    
54          802         5.3936e+06    6.6712e-01    7.3562e+05    7.0387e-01    
55          808         5.4921e+06    6.6753e-01    7.3724e+05    6.9273e-01    
56          815         5.6071e+06    6.6691e-01    7.3886e+05    7.2289e-01    
57          821         5.7059e+06    6.6748e-01    7.4043e+05    7.1152e-01    
58          827         5.8054e+06    6.6752e-01    7.4210e+05    7.1211e-01    
59          833         5.9052e+06    6.6800e-01    7.4367e+05    7.0344e-01    
60          839         6.0054e+06    6.6769e-01    7.4526e+05    7.1880e-01    
61          845         6.1056e+06    6.6825e-01    7.4680e+05    7.0389e-01    
62          851         6.2059e+06    6.6741e-01    7.4835e+05    7.4215e-01    
63          857         6.3065e+06    6.6796e-01    7.4991e+05    7.2712e-01    
64          863         6.4073e+06    6.6751e-01    7.5146e+05    7.4715e-01    
65          869         6.5083e+06    6.6813e-01    7.5307e+05    7.2589e-01    
66          875         6.6080e+06    6.6823e-01    7.5460e+05    7.3126e-01    
67          881         6.7069e+06    6.6845e-01    7.5620e+05    7.3020e-01    
68          887         6.8073e+06    6.6845e-01    7.5774e+05    7.3347e-01    
69          893         6.9078e+06    6.6793e-01    7.5934e+05    7.5069e-01    
70          899         7.0077e+06    6.6750e-01    7.6089e+05    7.7458e-01    
71          905         7.1067e+06    6.6750e-01    7.6247e+05    7.7598e-01    
72          911         7.2052e+06    6.6815e-01    7.6405e+05    7.5836e-01    
73          917         7.3039e+06    6.6750e-01    7.6563e+05    7.8216e-01    
74          923         7.4023e+06    6.6750e-01    7.6730e+05    7.8334e-01    
75          929         7.5001e+06    6.6750e-01    7.6889e+05    7.8555e-01    
76          935         7.5980e+06    6.6832e-01    7.7081e+05    7.6396e-01    
77          941         7.6958e+06    6.6763e-01    7.7245e+05    7.8665e-01    
78          947         7.7934e+06    6.6763e-01    7.7407e+05    7.8626e-01    
79          954         7.9075e+06    6.6751e-01    7.7580e+05    7.9014e-01    
80          960         8.0056e+06    6.6751e-01    7.7745e+05    7.9081e-01    
81          966         8.1034e+06    6.6901e-01    7.7917e+05    7.4118e-01    
82          972         8.2014e+06    6.6752e-01    7.8084e+05    7.9025e-01    
83          978         8.3001e+06    6.6752e-01    7.8254e+05    7.9795e-01    
84          984         8.3991e+06    6.6825e-01    7.8465e+05    7.7476e-01    
85          990         8.4984e+06    6.6825e-01    7.8632e+05    7.7539e-01    
86          996         8.5987e+06    6.6825e-01    7.8808e+05    7.7470e-01    
87          1002        8.6999e+06    6.6746e-01    7.9009e+05    7.9297e-01    
88          1008        8.8018e+06    6.6746e-01    7.9162e+05    7.9268e-01    
89          1014        8.9044e+06    6.6746e-01    7.9352e+05    7.9246e-01    
90          1020        9.0078e+06    6.6746e-01    7.9560e+05    7.9967e-01    
91          1025        9.0951e+06    6.6915e-01    7.9742e+05    7.4455e-01    
92          1031        9.2008e+06    6.6913e-01    7.9913e+05    7.3700e-01    
93          1037        9.3065e+06    6.6784e-01    8.0116e+05    7.8022e-01    
94          1042        9.3953e+06    6.6781e-01    8.0322e+05    7.8106e-01    
95          1048        9.5033e+06    6.6713e-01    8.0496e+05    8.0232e-01    
96          1053        9.5932e+06    6.6770e-01    8.0721e+05    7.8444e-01    
97          1059        9.7006e+06    6.6699e-01    8.0884e+05    8.0657e-01    
98          1064        9.7918e+06    6.6858e-01    8.1097e+05    7.4649e-01    
99          1070        9.9028e+06    6.6880e-01    8.1305e+05    7.3911e-01    
100         1075        9.9958e+06    6.6780e-01    8.1499e+05    7.7262e-01    
101         1081        1.0108e+07    6.6700e-01    8.1686e+05    7.9787e-01    
102         1086        1.0203e+07    6.6828e-01    8.1881e+05    7.5646e-01    
103         1091        1.0298e+07    6.6821e-01    8.2112e+05    7.5301e-01    
104         1096        1.0393e+07    6.6844e-01    8.2298e+05    7.4215e-01    
105         1102        1.0509e+07    6.6730e-01    8.2490e+05    7.8012e-01    
106         1107        1.0606e+07    6.6752e-01    8.2696e+05    7.7316e-01    
107         1112        1.0704e+07    6.6706e-01    8.2880e+05    7.7941e-01    
108         1117        1.0803e+07    6.6795e-01    8.3078e+05    7.5112e-01    
109         1122        1.0904e+07    6.6566e-01    8.3284e+05    8.2069e-01    
110         1127        1.1005e+07    6.6662e-01    8.3485e+05    7.8534e-01    
111         1132        1.1106e+07    6.6648e-01    8.3685e+05    7.8980e-01    
112         1137        1.1208e+07    6.6743e-01    8.3886e+05    7.4991e-01    
113         1141        1.1291e+07    6.6589e-01    8.4100e+05    7.9363e-01    
114         1146        1.1395e+07    6.6681e-01    8.4302e+05    7.6224e-01    
115         1151        1.1501e+07    6.6595e-01    8.4475e+05    7.9022e-01    
116         1156        1.1608e+07    6.6583e-01    8.4697e+05    7.8681e-01    
117         1160        1.1695e+07    6.6578e-01    8.4914e+05    7.8742e-01    
118         1165        1.1804e+07    6.6631e-01    8.5094e+05    7.6515e-01    
119         1169        1.1892e+07    6.6645e-01    8.5320e+05    7.5681e-01    
120         1174        1.2004e+07    6.6411e-01    8.5498e+05    8.2251e-01    
121         1178        1.2094e+07    6.6580e-01    8.5735e+05    7.6121e-01    
122         1183        1.2209e+07    6.6603e-01    8.5918e+05    7.5350e-01    
123         1187        1.2302e+07    6.6476e-01    8.6113e+05    7.8653e-01    
124         1191        1.2397e+07    6.6452e-01    8.6363e+05    7.8769e-01    
125         1195        1.2493e+07    6.6439e-01    8.6552e+05    7.9006e-01    
126         1199        1.2591e+07    6.6427e-01    8.6755e+05    7.8564e-01    
127         1203        1.2688e+07    6.6361e-01    8.6963e+05    8.0651e-01    
128         1208        1.2811e+07    6.6385e-01    8.7168e+05    7.9061e-01    
129         1212        1.2911e+07    6.6335e-01    8.7376e+05    7.9230e-01    
130         1216        1.3012e+07    6.6355e-01    8.7586e+05    7.9206e-01    
131         1219        1.3089e+07    6.6417e-01    8.7805e+05    7.6455e-01    
132         1223        1.3192e+07    6.6430e-01    8.8020e+05    7.5907e-01    
133         1227        1.3296e+07    6.6369e-01    8.8237e+05    7.7089e-01    
134         1231        1.3401e+07    6.6360e-01    8.8402e+05    7.6516e-01    
135         1235        1.3505e+07    6.6379e-01    8.8630e+05    7.5884e-01    
136         1239        1.3610e+07    6.6248e-01    8.8845e+05    7.9328e-01    
137         1242        1.3690e+07    6.6190e-01    8.9074e+05    7.9536e-01    
138         1246        1.3796e+07    6.6164e-01    8.9306e+05    8.0129e-01    
139         1250        1.3902e+07    6.6073e-01    8.9484e+05    8.2990e-01    
140         1254        1.4009e+07    6.6130e-01    8.9713e+05    7.9731e-01    
141         1257        1.4089e+07    6.6105e-01    8.9944e+05    8.0055e-01    
142         1261        1.4196e+07    6.6243e-01    9.0181e+05    7.5416e-01    
143         1265        1.4304e+07    6.6085e-01    9.0358e+05    8.0357e-01    
144         1269        1.4412e+07    6.6058e-01    9.0599e+05    7.9579e-01    
145         1272        1.4493e+07    6.6197e-01    9.0828e+05    7.5139e-01    
146         1276        1.4601e+07    6.6154e-01    9.1006e+05    7.6456e-01    
147         1280        1.4709e+07    6.6129e-01    9.1241e+05    7.5572e-01    
148         1283        1.4790e+07    6.6228e-01    9.1481e+05    7.2285e-01    
149         1287        1.4897e+07    6.6102e-01    9.1722e+05    7.6456e-01    
150         1291        1.5004e+07    6.6123e-01    9.1892e+05    7.4170e-01    
151         1295        1.5111e+07    6.5990e-01    9.2128e+05    7.8614e-01    
152         1298        1.5190e+07    6.5969e-01    9.2362e+05    7.9153e-01    
153         1302        1.5296e+07    6.6068e-01    9.2599e+05    7.3821e-01    
154         1306        1.5400e+07    6.5942e-01    9.2834e+05    7.8335e-01    
155         1310        1.5503e+07    6.6124e-01    9.3004e+05    7.2273e-01    
156         1314        1.5606e+07    6.5934e-01    9.3234e+05    7.8125e-01    
157         1318        1.5709e+07    6.5927e-01    9.3468e+05    7.7096e-01    
158         1322        1.5810e+07    6.5905e-01    9.3705e+05    7.8024e-01    
159         1326        1.5911e+07    6.5847e-01    9.3925e+05    7.9802e-01    
160         1330        1.6011e+07    6.6075e-01    9.4152e+05    7.1176e-01    
161         1334        1.6110e+07    6.5918e-01    9.4376e+05    7.5659e-01    
162         1338        1.6207e+07    6.5880e-01    9.4600e+05    7.7751e-01    
163         1342        1.6303e+07    6.5990e-01    9.4828e+05    7.4096e-01    
164         1346        1.6398e+07    6.5988e-01    9.5098e+05    7.3541e-01    
165         1350        1.6491e+07    6.5987e-01    9.5306e+05    7.3478e-01    
166         1355        1.6607e+07    6.5987e-01    9.5523e+05    7.3481e-01    
167         1359        1.6699e+07    6.5986e-01    9.5785e+05    7.3592e-01    
168         1364        1.6811e+07    6.5986e-01    9.5997e+05    7.3584e-01    
169         1368        1.6899e+07    6.5986e-01    9.6257e+05    7.3302e-01    
170         1373        1.7008e+07    6.5987e-01    9.6458e+05    7.2524e-01    
171         1377        1.7094e+07    6.5987e-01    9.6712e+05    7.3265e-01    
172         1382        1.7199e+07    6.5974e-01    9.6963e+05    7.4135e-01    
173         1387        1.7301e+07    6.5995e-01    9.7157e+05    7.3660e-01    
174         1392        1.7401e+07    6.5895e-01    9.7400e+05    7.7313e-01    
175         1397        1.7498e+07    6.6073e-01    9.7688e+05    7.1273e-01    
176         1402        1.7591e+07    6.6030e-01    9.7906e+05    7.2902e-01    
177         1408        1.7699e+07    6.6022e-01    9.8175e+05    7.3931e-01    
178         1414        1.7803e+07    6.5965e-01    9.8380e+05    7.6696e-01    
179         1420        1.7903e+07    6.6035e-01    9.8626e+05    7.5217e-01    
180         1426        1.7998e+07    6.6082e-01    9.8902e+05    7.4361e-01    
181         1433        1.8106e+07    6.6095e-01    9.9130e+05    7.4415e-01    
182         1439        1.8195e+07    6.6038e-01    9.9393e+05    7.7706e-01    
183         1446        1.8294e+07    6.6082e-01    9.9646e+05    7.6830e-01    
184         1454        1.8404e+07    6.6160e-01    9.9888e+05    7.5363e-01    
185         1461        1.8496e+07    6.6222e-01    1.0016e+06    7.4334e-01    
186         1469        1.8600e+07    6.6236e-01    1.0039e+06    7.4584e-01    
187         1477        1.8700e+07    6.6219e-01    1.0065e+06    7.6434e-01    
188         1485        1.8798e+07    6.6312e-01    1.0094e+06    7.4807e-01    
189         1494        1.8906e+07    6.6341e-01    1.0119e+06    7.4708e-01    
190         1502        1.8999e+07    6.6313e-01    1.0147e+06    7.7218e-01    
191         1511        1.9101e+07    6.6338e-01    1.0171e+06    7.7692e-01    
192         1520        1.9204e+07    6.6388e-01    1.0199e+06    7.7456e-01    
193         1529        1.9304e+07    6.6429e-01    1.0226e+06    7.7529e-01    
194         1538        1.9403e+07    6.6469e-01    1.0253e+06    7.7281e-01    
195         1547        1.9501e+07    6.6519e-01    1.0280e+06    7.7277e-01    
196         1556        1.9598e+07    6.6672e-01    1.0310e+06    7.3933e-01    
197         1566        1.9704e+07    6.6643e-01    1.0337e+06    7.6328e-01    
198         1575        1.9798e+07    6.6692e-01    1.0367e+06    7.6002e-01    
199         1585        1.9903e+07    6.6736e-01    1.0394e+06    7.6127e-01    
200         1594        1.9995e+07    6.6776e-01    1.0423e+06    7.6765e-01    
201         1604        2.0096e+07    6.6906e-01    1.0453e+06    7.3946e-01    
202         1614        2.0196e+07    6.6880e-01    1.0482e+06    7.6799e-01    
203         1625        2.0304e+07    6.6929e-01    1.0511e+06    7.6956e-01    
204         1635        2.0400e+07    6.6979e-01    1.0542e+06    7.7264e-01    
205         1646        2.0504e+07    6.7058e-01    1.0570e+06    7.6496e-01    
206         1656        2.0596e+07    6.7040e-01    1.0601e+06    7.8916e-01    
207         1668        2.0704e+07    6.7202e-01    1.0631e+06    7.5628e-01    
208         1679        2.0801e+07    6.7262e-01    1.0661e+06    7.5970e-01    
209         1690        2.0896e+07    6.7329e-01    1.0692e+06    7.5568e-01    
210         1702        2.0997e+07    6.7391e-01    1.0724e+06    7.6180e-01    
211         1714        2.1096e+07    6.7454e-01    1.0755e+06    7.6491e-01    
212         1727        2.1200e+07    6.7512e-01    1.0786e+06    7.6991e-01    
213         1740        2.1301e+07    6.7589e-01    1.0816e+06    7.6991e-01    
214         1753        2.1400e+07    6.7659e-01    1.0850e+06    7.7297e-01    
215         1767        2.1502e+07    6.7723e-01    1.0881e+06    7.7468e-01    
216         1781        2.1602e+07    6.7803e-01    1.0912e+06    7.7191e-01    
217         1795        2.1700e+07    6.7887e-01    1.0948e+06    7.7584e-01    
218         1810        2.1801e+07    6.7852e-01    1.0980e+06    8.0800e-01    
219         1825        2.1899e+07    6.7835e-01    1.1014e+06    8.3909e-01    
220         1841        2.2000e+07    6.7921e-01    1.1046e+06    8.3644e-01    
221         1857        2.2098e+07    6.7999e-01    1.1080e+06    8.3701e-01    
222         1874        2.2198e+07    6.8084e-01    1.1114e+06    8.2864e-01    
223         1892        2.2301e+07    6.8172e-01    1.1146e+06    8.2508e-01    
224         1910        2.2401e+07    6.8259e-01    1.1182e+06    8.2158e-01    
225         1929        2.2502e+07    6.8343e-01    1.1215e+06    8.1990e-01    
226         1948        2.2600e+07    6.8427e-01    1.1250e+06    8.1097e-01    
227         1968        2.2700e+07    6.8518e-01    1.1290e+06    7.9883e-01    
228         1989        2.2801e+07    6.8593e-01    1.1322e+06    7.9942e-01    
229         2010        2.2900e+07    6.8670e-01    1.1359e+06    7.8647e-01    
230         2032        2.3001e+07    6.8733e-01    1.1396e+06    7.7970e-01    
231         2054        2.3100e+07    6.8800e-01    1.1432e+06    7.6620e-01    
232         2076        2.3198e+07    6.8857e-01    1.1469e+06    7.5589e-01    
233         2098        2.3299e+07    6.8912e-01    1.1507e+06    7.4620e-01    
234         2119        2.3399e+07    6.8964e-01    1.1544e+06    7.3914e-01    
235         2139        2.3498e+07    6.9022e-01    1.1580e+06    7.3500e-01    
236         2158        2.3600e+07    6.9074e-01    1.1616e+06    7.3541e-01    
237         2175        2.3700e+07    6.9143e-01    1.1654e+06    7.3065e-01    
238         2191        2.3800e+07    6.9194e-01    1.1690e+06    7.3238e-01    
239         2205        2.3897e+07    6.9248e-01    1.1728e+06    7.3813e-01    
240         2219        2.4003e+07    6.9294e-01    1.1763e+06    7.4121e-01    
241         2231        2.4098e+07    6.9343e-01    1.1802e+06    7.4447e-01    
242         2243        2.4199e+07    6.9383e-01    1.1839e+06    7.4926e-01    
243         2255        2.4303e+07    6.9421e-01    1.1874e+06    7.5305e-01    
244         2266        2.4403e+07    6.9455e-01    1.1914e+06    7.5786e-01    
