# 1: x (m)
# 2: y (m)
# 3: depth (m)
# 4: T (K)
5.2026e+06 3.6774e+06 0.0000e+00 2.7297e+02
5.2022e+06 3.6771e+06 5.0251e+02 2.8044e+02
5.2017e+06 3.6768e+06 1.0050e+03 2.8792e+02
5.2013e+06 3.6765e+06 1.5075e+03 2.9540e+02
5.2009e+06 3.6762e+06 2.0101e+03 3.0288e+02
5.2005e+06 3.6759e+06 2.5126e+03 3.1036e+02
5.2001e+06 3.6756e+06 3.0151e+03 3.1784e+02
5.1997e+06 3.6753e+06 3.5176e+03 3.2532e+02
5.1993e+06 3.6750e+06 4.0201e+03 3.3280e+02
5.1989e+06 3.6748e+06 4.5226e+03 3.4028e+02
5.1985e+06 3.6745e+06 5.0251e+03 3.4776e+02
5.1980e+06 3.6742e+06 5.5276e+03 3.5524e+02
5.1976e+06 3.6739e+06 6.0302e+03 3.6272e+02
5.1972e+06 3.6736e+06 6.5327e+03 3.7020e+02
5.1968e+06 3.6733e+06 7.0352e+03 3.7768e+02
5.1964e+06 3.6730e+06 7.5377e+03 3.8516e+02
5.1960e+06 3.6727e+06 8.0402e+03 3.9264e+02
5.1956e+06 3.6724e+06 8.5427e+03 4.0012e+02
5.1952e+06 3.6721e+06 9.0452e+03 4.0760e+02
5.1948e+06 3.6719e+06 9.5477e+03 4.1508e+02
5.1944e+06 3.6716e+06 1.0050e+04 4.2256e+02
5.1939e+06 3.6713e+06 1.0553e+04 4.3004e+02
5.1935e+06 3.6710e+06 1.1055e+04 4.3752e+02
5.1931e+06 3.6707e+06 1.1558e+04 4.4500e+02
5.1927e+06 3.6704e+06 1.2060e+04 4.5248e+02
5.1923e+06 3.6701e+06 1.2563e+04 4.5996e+02
5.1919e+06 3.6698e+06 1.3065e+04 4.6744e+02
5.1915e+06 3.6695e+06 1.3568e+04 4.7492e+02
5.1911e+06 3.6692e+06 1.4070e+04 4.8240e+02
5.1907e+06 3.6690e+06 1.4573e+04 4.8988e+02
5.1903e+06 3.6687e+06 1.5075e+04 4.9736e+02
5.1898e+06 3.6684e+06 1.5578e+04 5.0484e+02
5.1894e+06 3.6681e+06 1.6080e+04 5.1232e+02
5.1890e+06 3.6678e+06 1.6583e+04 5.1980e+02
5.1886e+06 3.6675e+06 1.7085e+04 5.2728e+02
5.1882e+06 3.6672e+06 1.7588e+04 5.3476e+02
5.1878e+06 3.6669e+06 1.8090e+04 5.4224e+02
5.1874e+06 3.6666e+06 1.8593e+04 5.4972e+02
5.1870e+06 3.6663e+06 1.9095e+04 5.5720e+02
5.1866e+06 3.6661e+06 1.9598e+04 5.6468e+02
5.1861e+06 3.6658e+06 2.0101e+04 5.7216e+02
5.1857e+06 3.6655e+06 2.0603e+04 5.7964e+02
5.1853e+06 3.6652e+06 2.1106e+04 5.8712e+02
5.1849e+06 3.6649e+06 2.1608e+04 5.9460e+02
5.1845e+06 3.6646e+06 2.2111e+04 6.0208e+02
5.1841e+06 3.6643e+06 2.2613e+04 6.0920e+02
5.1837e+06 3.6640e+06 2.3116e+04 6.1623e+02
5.1833e+06 3.6637e+06 2.3618e+04 6.2306e+02
5.1829e+06 3.6634e+06 2.4121e+04 6.2983e+02
5.1825e+06 3.6632e+06 2.4623e+04 6.3660e+02
5.1820e+06 3.6629e+06 2.5126e+04 6.4338e+02
5.1816e+06 3.6626e+06 2.5628e+04 6.5015e+02
5.1812e+06 3.6623e+06 2.6131e+04 6.5693e+02
5.1808e+06 3.6620e+06 2.6633e+04 6.6370e+02
5.1804e+06 3.6617e+06 2.7136e+04 6.7047e+02
5.1800e+06 3.6614e+06 2.7638e+04 6.7724e+02
5.1796e+06 3.6611e+06 2.8141e+04 6.8402e+02
5.1792e+06 3.6608e+06 2.8643e+04 6.9079e+02
5.1788e+06 3.6605e+06 2.9146e+04 6.9757e+02
5.1783e+06 3.6603e+06 2.9648e+04 7.0434e+02
5.1779e+06 3.6600e+06 3.0151e+04 7.1111e+02
5.1775e+06 3.6597e+06 3.0653e+04 7.1788e+02
5.1771e+06 3.6594e+06 3.1156e+04 7.2466e+02
5.1767e+06 3.6591e+06 3.1658e+04 7.3143e+02
5.1763e+06 3.6588e+06 3.2161e+04 7.3821e+02
5.1759e+06 3.6585e+06 3.2663e+04 7.4498e+02
5.1755e+06 3.6582e+06 3.3166e+04 7.5175e+02
5.1751e+06 3.6579e+06 3.3668e+04 7.5853e+02
5.1747e+06 3.6576e+06 3.4171e+04 7.6530e+02
5.1742e+06 3.6573e+06 3.4673e+04 7.7207e+02
5.1738e+06 3.6571e+06 3.5176e+04 7.7885e+02
5.1734e+06 3.6568e+06 3.5678e+04 7.8562e+02
5.1730e+06 3.6565e+06 3.6181e+04 7.9240e+02
5.1726e+06 3.6562e+06 3.6683e+04 7.9917e+02
5.1722e+06 3.6559e+06 3.7186e+04 8.0594e+02
5.1718e+06 3.6556e+06 3.7688e+04 8.1271e+02
5.1714e+06 3.6553e+06 3.8191e+04 8.1949e+02
5.1710e+06 3.6550e+06 3.8693e+04 8.2626e+02
5.1706e+06 3.6547e+06 3.9196e+04 8.3303e+02
5.1701e+06 3.6544e+06 3.9698e+04 8.3981e+02
5.1697e+06 3.6542e+06 4.0201e+04 8.4658e+02
5.1693e+06 3.6539e+06 4.0704e+04 8.5335e+02
5.1689e+06 3.6536e+06 4.1206e+04 8.6013e+02
5.1685e+06 3.6533e+06 4.1709e+04 8.6690e+02
5.1681e+06 3.6530e+06 4.2211e+04 8.7367e+02
5.1677e+06 3.6527e+06 4.2714e+04 8.8045e+02
5.1673e+06 3.6524e+06 4.3216e+04 8.8722e+02
5.1669e+06 3.6521e+06 4.3719e+04 8.9400e+02
5.1664e+06 3.6518e+06 4.4221e+04 9.0077e+02
5.1660e+06 3.6515e+06 4.4724e+04 9.0734e+02
5.1656e+06 3.6513e+06 4.5226e+04 9.1376e+02
5.1652e+06 3.6510e+06 4.5729e+04 9.1971e+02
5.1648e+06 3.6507e+06 4.6231e+04 9.2527e+02
5.1644e+06 3.6504e+06 4.6734e+04 9.3083e+02
5.1640e+06 3.6501e+06 4.7236e+04 9.3638e+02
5.1636e+06 3.6498e+06 4.7739e+04 9.4194e+02
5.1632e+06 3.6495e+06 4.8241e+04 9.4750e+02
5.1628e+06 3.6492e+06 4.8744e+04 9.5306e+02
5.1623e+06 3.6489e+06 4.9246e+04 9.5862e+02
5.1619e+06 3.6486e+06 4.9749e+04 9.6418e+02
5.1615e+06 3.6484e+06 5.0251e+04 9.6973e+02
5.1611e+06 3.6481e+06 5.0754e+04 9.7529e+02
5.1607e+06 3.6478e+06 5.1256e+04 9.8085e+02
5.1603e+06 3.6475e+06 5.1759e+04 9.8641e+02
5.1599e+06 3.6472e+06 5.2261e+04 9.9197e+02
5.1595e+06 3.6469e+06 5.2764e+04 9.9753e+02
5.1591e+06 3.6466e+06 5.3266e+04 1.0031e+03
5.1587e+06 3.6463e+06 5.3769e+04 1.0086e+03
5.1582e+06 3.6460e+06 5.4271e+04 1.0142e+03
5.1578e+06 3.6457e+06 5.4774e+04 1.0198e+03
5.1574e+06 3.6455e+06 5.5276e+04 1.0253e+03
5.1570e+06 3.6452e+06 5.5779e+04 1.0309e+03
5.1566e+06 3.6449e+06 5.6281e+04 1.0364e+03
5.1562e+06 3.6446e+06 5.6784e+04 1.0420e+03
5.1558e+06 3.6443e+06 5.7286e+04 1.0476e+03
5.1554e+06 3.6440e+06 5.7789e+04 1.0531e+03
5.1550e+06 3.6437e+06 5.8291e+04 1.0587e+03
5.1545e+06 3.6434e+06 5.8794e+04 1.0642e+03
5.1541e+06 3.6431e+06 5.9296e+04 1.0698e+03
5.1537e+06 3.6428e+06 5.9799e+04 1.0753e+03
5.1533e+06 3.6426e+06 6.0302e+04 1.0809e+03
5.1529e+06 3.6423e+06 6.0804e+04 1.0865e+03
5.1525e+06 3.6420e+06 6.1307e+04 1.0920e+03
5.1521e+06 3.6417e+06 6.1809e+04 1.0976e+03
5.1517e+06 3.6414e+06 6.2312e+04 1.1031e+03
5.1513e+06 3.6411e+06 6.2814e+04 1.1087e+03
5.1509e+06 3.6408e+06 6.3317e+04 1.1142e+03
5.1504e+06 3.6405e+06 6.3819e+04 1.1198e+03
5.1500e+06 3.6402e+06 6.4322e+04 1.1254e+03
5.1496e+06 3.6399e+06 6.4824e+04 1.1309e+03
5.1492e+06 3.6397e+06 6.5327e+04 1.1365e+03
5.1488e+06 3.6394e+06 6.5829e+04 1.1420e+03
5.1484e+06 3.6391e+06 6.6332e+04 1.1476e+03
5.1480e+06 3.6388e+06 6.6834e+04 1.1532e+03
5.1476e+06 3.6385e+06 6.7337e+04 1.1587e+03
5.1472e+06 3.6382e+06 6.7839e+04 1.1638e+03
5.1468e+06 3.6379e+06 6.8342e+04 1.1681e+03
5.1463e+06 3.6376e+06 6.8844e+04 1.1723e+03
5.1459e+06 3.6373e+06 6.9347e+04 1.1764e+03
5.1455e+06 3.6370e+06 6.9849e+04 1.1806e+03
5.1451e+06 3.6368e+06 7.0352e+04 1.1847e+03
5.1447e+06 3.6365e+06 7.0854e+04 1.1888e+03
5.1443e+06 3.6362e+06 7.1357e+04 1.1930e+03
5.1439e+06 3.6359e+06 7.1859e+04 1.1971e+03
5.1435e+06 3.6356e+06 7.2362e+04 1.2013e+03
5.1431e+06 3.6353e+06 7.2864e+04 1.2054e+03
5.1426e+06 3.6350e+06 7.3367e+04 1.2096e+03
5.1422e+06 3.6347e+06 7.3869e+04 1.2137e+03
5.1418e+06 3.6344e+06 7.4372e+04 1.2178e+03
5.1414e+06 3.6341e+06 7.4874e+04 1.2220e+03
5.1410e+06 3.6339e+06 7.5377e+04 1.2261e+03
5.1406e+06 3.6336e+06 7.5879e+04 1.2303e+03
5.1402e+06 3.6333e+06 7.6382e+04 1.2344e+03
5.1398e+06 3.6330e+06 7.6884e+04 1.2386e+03
5.1394e+06 3.6327e+06 7.7387e+04 1.2427e+03
5.1390e+06 3.6324e+06 7.7889e+04 1.2469e+03
5.1385e+06 3.6321e+06 7.8392e+04 1.2510e+03
5.1381e+06 3.6318e+06 7.8894e+04 1.2551e+03
5.1377e+06 3.6315e+06 7.9397e+04 1.2593e+03
5.1373e+06 3.6312e+06 7.9899e+04 1.2634e+03
5.1369e+06 3.6310e+06 8.0402e+04 1.2676e+03
5.1365e+06 3.6307e+06 8.0905e+04 1.2717e+03
5.1361e+06 3.6304e+06 8.1407e+04 1.2759e+03
5.1357e+06 3.6301e+06 8.1910e+04 1.2800e+03
5.1353e+06 3.6298e+06 8.2412e+04 1.2841e+03
5.1349e+06 3.6295e+06 8.2915e+04 1.2883e+03
5.1344e+06 3.6292e+06 8.3417e+04 1.2924e+03
5.1340e+06 3.6289e+06 8.3920e+04 1.2966e+03
5.1336e+06 3.6286e+06 8.4422e+04 1.3007e+03
5.1332e+06 3.6283e+06 8.4925e+04 1.3049e+03
5.1328e+06 3.6281e+06 8.5427e+04 1.3090e+03
5.1324e+06 3.6278e+06 8.5930e+04 1.3131e+03
5.1320e+06 3.6275e+06 8.6432e+04 1.3173e+03
5.1316e+06 3.6272e+06 8.6935e+04 1.3214e+03
5.1312e+06 3.6269e+06 8.7437e+04 1.3256e+03
5.1307e+06 3.6266e+06 8.7940e+04 1.3297e+03
5.1303e+06 3.6263e+06 8.8442e+04 1.3339e+03
5.1299e+06 3.6260e+06 8.8945e+04 1.3380e+03
5.1295e+06 3.6257e+06 8.9447e+04 1.3421e+03
5.1291e+06 3.6254e+06 8.9950e+04 1.3462e+03
5.1287e+06 3.6252e+06 9.0452e+04 1.3496e+03
5.1283e+06 3.6249e+06 9.0955e+04 1.3529e+03
5.1279e+06 3.6246e+06 9.1457e+04 1.3557e+03
5.1275e+06 3.6243e+06 9.1960e+04 1.3585e+03
5.1271e+06 3.6240e+06 9.2462e+04 1.3614e+03
5.1266e+06 3.6237e+06 9.2965e+04 1.3642e+03
5.1262e+06 3.6234e+06 9.3467e+04 1.3670e+03
5.1258e+06 3.6231e+06 9.3970e+04 1.3698e+03
5.1254e+06 3.6228e+06 9.4472e+04 1.3726e+03
5.1250e+06 3.6225e+06 9.4975e+04 1.3755e+03
5.1246e+06 3.6223e+06 9.5477e+04 1.3783e+03
5.1242e+06 3.6220e+06 9.5980e+04 1.3811e+03
5.1238e+06 3.6217e+06 9.6482e+04 1.3839e+03
5.1234e+06 3.6214e+06 9.6985e+04 1.3867e+03
5.1230e+06 3.6211e+06 9.7487e+04 1.3896e+03
5.1225e+06 3.6208e+06 9.7990e+04 1.3924e+03
5.1221e+06 3.6205e+06 9.8492e+04 1.3952e+03
5.1217e+06 3.6202e+06 9.8995e+04 1.3980e+03
5.1213e+06 3.6199e+06 9.9497e+04 1.4008e+03
5.1209e+06 3.6196e+06 1.0000e+05 1.4037e+03